     time [s]   theta [rad]     psi [rad]     phi [rad]     q [rad/s]     r [rad/s]     p [rad/s]        pn [m]        pe [m]         h [m]       u [m/s]       v [m/s]       w [m/s]      Va [m/s]   alpha [rad]    beta [rad] delta_a [rad] delta_e [rad]       delta_t delta_r [rad]     u_r [m/s]    ax [m/s^2]    ay [m/s^2]    az [m/s^2]
0.0000 0.0733 0.0000 -0.0000 -0.0000 -0.0000 0.0000 0.0000 0.0000 -0.0000 34.9061 0.0000 2.5621 35.0000 0.0733 0.0000 0.0000 0.0000 0.4000 0.0000 34.9061 -1.2528 -0.0000 -9.1452
0.0100 0.0731 0.0000 -0.0000 -0.0365 -0.0000 0.0000 0.3499 0.0000 -0.0000 34.8869 -0.0000 2.5620 34.9809 0.0733 -0.0000 0.0000 0.0000 0.4000 0.0000 34.8869 -1.2454 0.0000 -9.1374
0.0200 0.0725 0.0000 -0.0000 -0.0726 -0.0000 0.0000 0.6996 0.0000 -0.0002 34.8687 -0.0000 2.5495 34.9618 0.0730 -0.0000 0.0000 0.0000 0.4000 0.0000 34.8687 -1.2410 0.0000 -9.1085
0.0300 0.0716 0.0000 -0.0000 -0.1084 -0.0000 0.0000 1.0491 0.0000 -0.0004 34.8516 -0.0000 2.5248 34.9429 0.0723 -0.0000 0.0000 0.0000 0.4000 0.0000 34.8516 -1.2394 0.0000 -9.0591
0.0400 0.0704 0.0000 -0.0000 -0.1436 -0.0000 0.0000 1.3985 0.0000 -0.0006 34.8354 -0.0000 2.4884 34.9241 0.0713 -0.0000 0.0000 0.0000 0.4000 0.0000 34.8354 -1.2407 0.0000 -8.9898
0.0500 0.0688 0.0000 -0.0000 -0.1782 -0.0000 0.0000 1.7476 0.0000 -0.0010 34.8201 -0.0000 2.4406 34.9055 0.0700 -0.0000 0.0000 0.0000 0.4000 0.0000 34.8201 -1.2444 0.0000 -8.9015
0.0600 0.0668 0.0000 -0.0000 -0.2122 -0.0000 0.0000 2.0966 0.0000 -0.0015 34.8057 -0.0000 2.3819 34.8871 0.0683 -0.0000 0.0000 0.0000 0.4000 0.0000 34.8057 -1.2504 0.0000 -8.7947
0.0700 0.0645 0.0000 -0.0000 -0.2453 -0.0000 0.0000 2.4454 0.0000 -0.0021 34.7921 -0.0000 2.3127 34.8689 0.0664 -0.0000 0.0000 0.0000 0.4000 0.0000 34.7921 -1.2584 0.0000 -8.6703
0.0800 0.0619 0.0000 -0.0000 -0.2777 -0.0000 0.0000 2.7940 0.0000 -0.0028 34.7792 -0.0000 2.2335 34.8509 0.0641 -0.0000 0.0000 0.0000 0.4000 0.0000 34.7792 -1.2681 0.0000 -8.5291
0.0900 0.0590 0.0000 -0.0000 -0.3091 -0.0000 0.0000 3.1424 0.0000 -0.0036 34.7670 -0.0000 2.1448 34.8331 0.0616 -0.0000 0.0000 0.0000 0.4000 0.0000 34.7670 -1.2792 0.0000 -8.3720
0.1000 0.0557 0.0000 -0.0000 -0.3396 -0.0000 0.0000 3.4906 0.0000 -0.0046 34.7553 -0.0000 2.0470 34.8155 0.0588 -0.0000 0.0000 0.0000 0.4000 0.0000 34.7553 -1.2914 0.0000 -8.1997
0.1100 0.0522 0.0000 -0.0000 -0.3691 -0.0000 0.0000 3.8387 0.0000 -0.0058 34.7441 -0.0000 1.9406 34.7983 0.0558 -0.0000 0.0000 0.0000 0.4000 0.0000 34.7441 -1.3042 0.0000 -8.0132
0.1200 0.0483 0.0000 -0.0000 -0.3975 -0.0000 0.0000 4.1866 0.0000 -0.0071 34.7333 -0.0000 1.8261 34.7813 0.0525 -0.0000 0.0000 0.0000 0.4000 0.0000 34.7333 -1.3174 0.0000 -7.8133
0.1300 0.0442 0.0000 -0.0000 -0.4248 -0.0000 0.0000 4.5343 0.0000 -0.0087 34.7228 -0.0000 1.7041 34.7646 0.0490 -0.0000 0.0000 0.0000 0.4000 0.0000 34.7228 -1.3307 0.0000 -7.6010
0.1400 0.0399 0.0000 -0.0000 -0.4509 -0.0000 0.0000 4.8819 0.0000 -0.0105 34.7125 -0.0000 1.5751 34.7482 0.0453 -0.0000 0.0000 0.0000 0.4000 0.0000 34.7125 -1.3436 0.0000 -7.3771
0.1500 0.0352 0.0000 -0.0000 -0.4758 -0.0000 0.0000 5.2293 0.0000 -0.0125 34.7023 -0.0000 1.4396 34.7321 0.0415 -0.0000 0.0000 0.0000 0.4000 0.0000 34.7023 -1.3558 0.0000 -7.1425
0.1600 0.0303 0.0000 -0.0000 -0.4994 -0.0000 0.0000 5.5765 0.0000 -0.0148 34.6921 -0.0000 1.2981 34.7164 0.0374 -0.0000 0.0000 0.0000 0.4000 0.0000 34.6921 -1.3672 0.0000 -6.8982
0.1700 0.0252 0.0000 -0.0000 -0.5217 -0.0000 0.0000 5.9236 0.0000 -0.0174 34.6819 -0.0000 1.1512 34.7010 0.0332 -0.0000 0.0000 0.0000 0.4000 0.0000 34.6819 -1.3772 0.0000 -6.6451
0.1800 0.0199 0.0000 -0.0000 -0.5427 -0.0000 0.0000 6.2705 0.0000 -0.0204 34.6716 -0.0000 0.9994 34.6860 0.0288 -0.0000 0.0000 0.0000 0.4000 0.0000 34.6716 -1.3858 0.0000 -6.3841
0.1900 0.0144 0.0000 -0.0000 -0.5624 -0.0000 0.0000 6.6173 0.0000 -0.0236 34.6611 -0.0000 0.8433 34.6714 0.0243 -0.0000 0.0000 0.0000 0.4000 0.0000 34.6611 -1.3925 0.0000 -6.1162
0.2000 0.0087 0.0000 -0.0000 -0.5807 -0.0000 0.0000 6.9639 0.0000 -0.0272 34.6504 -0.0000 0.6834 34.6572 0.0197 -0.0000 0.0000 0.0000 0.4000 0.0000 34.6504 -1.3973 0.0000 -5.8423
0.2100 0.0028 0.0000 -0.0000 -0.5977 -0.0000 0.0000 7.3104 0.0000 -0.0313 34.6394 -0.0000 0.5202 34.6433 0.0150 -0.0000 0.0000 0.0000 0.4000 0.0000 34.6394 -1.3999 0.0000 -5.5633
0.2200 -0.0033 0.0000 -0.0000 -0.6132 -0.0000 0.0000 7.6567 0.0000 -0.0357 34.6281 -0.0000 0.3542 34.6299 0.0102 -0.0000 0.0000 0.0000 0.4000 0.0000 34.6281 -1.4001 0.0000 -5.2801
0.2300 -0.0095 0.0000 -0.0000 -0.6273 -0.0000 0.0000 8.0029 0.0000 -0.0406 34.6164 -0.0000 0.1861 34.6169 0.0054 -0.0000 0.0000 0.0000 0.4000 0.0000 34.6164 -1.3979 0.0000 -4.9935
0.2400 -0.0158 0.0000 -0.0000 -0.6401 -0.0000 0.0000 8.3490 0.0000 -0.0460 34.6043 -0.0000 0.0162 34.6043 0.0005 -0.0000 0.0000 0.0000 0.4000 0.0000 34.6043 -1.3931 0.0000 -4.7046
0.2500 -0.0223 0.0000 -0.0000 -0.6514 -0.0000 0.0000 8.6949 0.0000 -0.0519 34.5918 -0.0000 -0.1549 34.5922 -0.0045 -0.0000 0.0000 0.0000 0.4000 0.0000 34.5918 -1.3856 0.0000 -4.4140
0.2600 -0.0288 0.0000 -0.0000 -0.6614 -0.0000 0.0000 9.0407 0.0000 -0.0584 34.5790 -0.0000 -0.3267 34.5805 -0.0094 -0.0000 0.0000 0.0000 0.4000 0.0000 34.5790 -1.3755 0.0000 -4.1228
0.2700 -0.0355 0.0000 -0.0000 -0.6699 -0.0000 0.0000 9.3864 0.0000 -0.0653 34.5657 -0.0000 -0.4986 34.5693 -0.0144 -0.0000 0.0000 0.0000 0.4000 0.0000 34.5657 -1.3626 0.0000 -3.8316
0.2800 -0.0422 0.0000 -0.0000 -0.6771 -0.0000 0.0000 9.7319 0.0000 -0.0729 34.5520 -0.0000 -0.6704 34.5585 -0.0194 -0.0000 0.0000 0.0000 0.4000 0.0000 34.5520 -1.3471 0.0000 -3.5414
0.2900 -0.0490 0.0000 -0.0000 -0.6829 -0.0000 0.0000 10.0774 0.0000 -0.0811 34.5379 -0.0000 -0.8414 34.5482 -0.0244 -0.0000 0.0000 0.0000 0.4000 0.0000 34.5379 -1.3290 0.0000 -3.2528
0.3000 -0.0559 0.0000 -0.0000 -0.6874 -0.0000 0.0000 10.4227 0.0000 -0.0900 34.5235 -0.0000 -1.0113 34.5383 -0.0293 -0.0000 0.0000 0.0000 0.4000 0.0000 34.5235 -1.3084 0.0000 -2.9667
0.3100 -0.0628 0.0000 -0.0000 -0.6905 -0.0000 0.0000 10.7679 0.0000 -0.0995 34.5088 -0.0000 -1.1795 34.5290 -0.0342 -0.0000 0.0000 0.0000 0.4000 0.0000 34.5088 -1.2854 0.0000 -2.6837
0.3200 -0.0697 0.0000 -0.0000 -0.6923 -0.0000 0.0000 11.1130 0.0000 -0.1098 34.4938 -0.0000 -1.3458 34.5201 -0.0390 -0.0000 0.0000 0.0000 0.4000 0.0000 34.4938 -1.2601 0.0000 -2.4045
0.3300 -0.0766 0.0000 -0.0000 -0.6929 -0.0000 0.0000 11.4580 0.0000 -0.1207 34.4786 -0.0000 -1.5096 34.5117 -0.0438 -0.0000 0.0000 0.0000 0.4000 0.0000 34.4786 -1.2328 0.0000 -2.1298
0.3400 -0.0835 0.0000 -0.0000 -0.6922 -0.0000 0.0000 11.8029 0.0000 -0.1325 34.4633 -0.0000 -1.6706 34.5038 -0.0484 -0.0000 0.0000 0.0000 0.4000 0.0000 34.4633 -1.2035 0.0000 -1.8603
0.3500 -0.0905 0.0000 -0.0000 -0.6903 -0.0000 0.0000 12.1476 0.0000 -0.1450 34.4478 -0.0000 -1.8285 34.4963 -0.0530 -0.0000 0.0000 0.0000 0.4000 0.0000 34.4478 -1.1724 0.0000 -1.5964
0.3600 -0.0974 0.0000 -0.0000 -0.6872 -0.0000 0.0000 12.4923 0.0000 -0.1583 34.4323 -0.0000 -1.9828 34.4894 -0.0575 -0.0000 0.0000 0.0000 0.4000 0.0000 34.4323 -1.1399 0.0000 -1.3388
0.3700 -0.1042 0.0000 -0.0000 -0.6830 -0.0000 0.0000 12.8369 0.0000 -0.1724 34.4168 -0.0000 -2.1333 34.4829 -0.0619 -0.0000 0.0000 0.0000 0.4000 0.0000 34.4168 -1.1061 0.0000 -1.0881
0.3800 -0.1110 0.0000 -0.0000 -0.6776 -0.0000 0.0000 13.1813 0.0000 -0.1874 34.4015 -0.0000 -2.2796 34.4769 -0.0662 -0.0000 0.0000 0.0000 0.4000 0.0000 34.4015 -1.0712 0.0000 -0.8446
0.3900 -0.1178 0.0000 -0.0000 -0.6712 -0.0000 0.0000 13.5257 0.0000 -0.2033 34.3863 -0.0000 -2.4215 34.4714 -0.0703 -0.0000 0.0000 0.0000 0.4000 0.0000 34.3863 -1.0355 0.0000 -0.6089
0.4000 -0.1244 0.0000 -0.0000 -0.6638 -0.0000 0.0000 13.8700 0.0000 -0.2202 34.3713 -0.0000 -2.5587 34.4664 -0.0743 -0.0000 0.0000 0.0000 0.4000 0.0000 34.3713 -0.9993 0.0000 -0.3813
0.4100 -0.1310 0.0000 -0.0000 -0.6553 -0.0000 0.0000 14.2142 0.0000 -0.2379 34.3567 -0.0000 -2.6909 34.4619 -0.0782 -0.0000 0.0000 0.0000 0.4000 0.0000 34.3567 -0.9628 0.0000 -0.1623
0.4200 -0.1375 0.0000 -0.0000 -0.6460 -0.0000 0.0000 14.5583 0.0000 -0.2566 34.3424 -0.0000 -2.8178 34.4578 -0.0819 -0.0000 0.0000 0.0000 0.4000 0.0000 34.3424 -0.9263 0.0000 0.0477
0.4300 -0.1439 0.0000 -0.0000 -0.6358 -0.0000 0.0000 14.9023 0.0000 -0.2762 34.3286 -0.0000 -2.9394 34.4542 -0.0854 -0.0000 0.0000 0.0000 0.4000 0.0000 34.3286 -0.8900 0.0000 0.2485
0.4400 -0.1502 0.0000 -0.0000 -0.6247 -0.0000 0.0000 15.2462 0.0000 -0.2969 34.3154 -0.0000 -3.0553 34.4511 -0.0888 -0.0000 0.0000 0.0000 0.4000 0.0000 34.3154 -0.8541 0.0000 0.4398
0.4500 -0.1564 0.0000 -0.0000 -0.6128 -0.0000 0.0000 15.5900 0.0000 -0.3186 34.3027 -0.0000 -3.1655 34.4485 -0.0920 -0.0000 0.0000 0.0000 0.4000 0.0000 34.3027 -0.8189 0.0000 0.6213
0.4600 -0.1625 0.0000 -0.0000 -0.6002 -0.0000 0.0000 15.9337 0.0000 -0.3412 34.2908 -0.0000 -3.2697 34.4463 -0.0951 -0.0000 0.0000 0.0000 0.4000 0.0000 34.2908 -0.7847 0.0000 0.7928
0.4700 -0.1684 0.0000 -0.0000 -0.5869 -0.0000 0.0000 16.2773 0.0000 -0.3650 34.2795 -0.0000 -3.3678 34.4446 -0.0979 -0.0000 0.0000 0.0000 0.4000 0.0000 34.2795 -0.7517 0.0000 0.9541
0.4800 -0.1742 0.0000 -0.0000 -0.5730 -0.0000 0.0000 16.6209 0.0000 -0.3898 34.2691 -0.0000 -3.4597 34.4433 -0.1006 -0.0000 0.0000 0.0000 0.4000 0.0000 34.2691 -0.7200 0.0000 1.1051
0.4900 -0.1799 0.0000 -0.0000 -0.5585 -0.0000 0.0000 16.9643 0.0000 -0.4157 34.2595 -0.0000 -3.5454 34.4424 -0.1031 -0.0000 0.0000 0.0000 0.4000 0.0000 34.2595 -0.6899 0.0000 1.2455
0.5000 -0.1854 0.0000 -0.0000 -0.5435 -0.0000 0.0000 17.3077 0.0000 -0.4426 34.2508 -0.0000 -3.6247 34.4420 -0.1054 -0.0000 0.0000 0.0000 0.4000 0.0000 34.2508 -0.6615 0.0000 1.3754
0.5100 -0.1908 0.0000 -0.0000 -0.5280 -0.0000 0.0000 17.6510 0.0000 -0.4707 34.2430 -0.0000 -3.6975 34.4420 -0.1076 -0.0000 0.0000 0.0000 0.4000 0.0000 34.2430 -0.6350 0.0000 1.4946
0.5200 -0.1960 0.0000 -0.0000 -0.5120 -0.0000 0.0000 17.9942 0.0000 -0.4999 34.2362 -0.0000 -3.7639 34.4425 -0.1095 -0.0000 0.0000 0.0000 0.4000 0.0000 34.2362 -0.6106 0.0000 1.6032
0.5300 -0.2010 0.0000 -0.0000 -0.4957 -0.0000 0.0000 18.3373 0.0000 -0.5302 34.2304 -0.0000 -3.8238 34.4433 -0.1112 -0.0000 0.0000 0.0000 0.4000 0.0000 34.2304 -0.5884 0.0000 1.7010
0.5400 -0.2059 0.0000 -0.0000 -0.4791 -0.0000 0.0000 18.6803 0.0000 -0.5616 34.2256 -0.0000 -3.8772 34.4446 -0.1128 -0.0000 0.0000 0.0000 0.4000 0.0000 34.2256 -0.5685 0.0000 1.7882
0.5500 -0.2106 0.0000 -0.0000 -0.4621 -0.0000 0.0000 19.0232 0.0000 -0.5942 34.2219 -0.0000 -3.9241 34.4462 -0.1142 -0.0000 0.0000 0.0000 0.4000 0.0000 34.2219 -0.5510 0.0000 1.8647
0.5600 -0.2151 0.0000 -0.0000 -0.4450 -0.0000 0.0000 19.3660 0.0000 -0.6279 34.2193 -0.0000 -3.9645 34.4482 -0.1153 -0.0000 0.0000 0.0000 0.4000 0.0000 34.2193 -0.5360 0.0000 1.9306
0.5700 -0.2195 0.0000 -0.0000 -0.4277 -0.0000 0.0000 19.7087 0.0000 -0.6628 34.2178 -0.0000 -3.9986 34.4506 -0.1163 -0.0000 0.0000 0.0000 0.4000 0.0000 34.2178 -0.5235 0.0000 1.9859
0.5800 -0.2237 0.0000 -0.0000 -0.4103 -0.0000 0.0000 20.0513 0.0000 -0.6989 34.2173 -0.0000 -4.0263 34.4534 -0.1171 -0.0000 0.0000 0.0000 0.4000 0.0000 34.2173 -0.5136 0.0000 2.0309
0.5900 -0.2277 0.0000 -0.0000 -0.3928 -0.0000 0.0000 20.3939 0.0000 -0.7361 34.2179 -0.0000 -4.0477 34.4565 -0.1177 -0.0000 0.0000 0.0000 0.4000 0.0000 34.2179 -0.5062 0.0000 2.0656
0.6000 -0.2315 0.0000 -0.0000 -0.3753 -0.0000 0.0000 20.7363 0.0000 -0.7745 34.2196 -0.0000 -4.0629 34.4600 -0.1182 -0.0000 0.0000 0.0000 0.4000 0.0000 34.2196 -0.5014 0.0000 2.0902
0.6100 -0.2352 0.0000 -0.0000 -0.3578 -0.0000 0.0000 21.0786 0.0000 -0.8141 34.2224 -0.0000 -4.0720 34.4638 -0.1184 -0.0000 0.0000 0.0000 0.4000 0.0000 34.2224 -0.4992 0.0000 2.1048
0.6200 -0.2387 0.0000 -0.0000 -0.3404 -0.0000 0.0000 21.4209 0.0000 -0.8548 34.2262 -0.0000 -4.0751 34.4679 -0.1185 -0.0000 0.0000 0.0000 0.4000 0.0000 34.2262 -0.4995 0.0000 2.1096
0.6300 -0.2420 0.0000 -0.0000 -0.3231 -0.0000 0.0000 21.7630 0.0000 -0.8967 34.2310 -0.0000 -4.0724 34.4724 -0.1184 -0.0000 0.0000 0.0000 0.4000 0.0000 34.2310 -0.5023 0.0000 2.1049
0.6400 -0.2451 0.0000 -0.0000 -0.3060 -0.0000 0.0000 22.1051 0.0000 -0.9398 34.2368 -0.0000 -4.0640 34.4771 -0.1182 -0.0000 0.0000 0.0000 0.4000 0.0000 34.2368 -0.5075 0.0000 2.0908
0.6500 -0.2481 0.0000 -0.0000 -0.2891 -0.0000 0.0000 22.4470 0.0000 -0.9840 34.2435 -0.0000 -4.0501 34.4822 -0.1177 -0.0000 0.0000 0.0000 0.4000 0.0000 34.2435 -0.5151 0.0000 2.0677
0.6600 -0.2509 0.0000 -0.0000 -0.2724 -0.0000 0.0000 22.7889 0.0000 -1.0295 34.2512 -0.0000 -4.0307 34.4875 -0.1171 -0.0000 0.0000 0.0000 0.4000 0.0000 34.2512 -0.5248 0.0000 2.0357
0.6700 -0.2536 0.0000 -0.0000 -0.2560 -0.0000 0.0000 23.1306 0.0000 -1.0760 34.2597 -0.0000 -4.0061 34.4931 -0.1164 -0.0000 0.0000 0.0000 0.4000 0.0000 34.2597 -0.5368 0.0000 1.9951
0.6800 -0.2561 0.0000 -0.0000 -0.2399 -0.0000 0.0000 23.4723 0.0000 -1.1238 34.2691 -0.0000 -3.9766 34.4990 -0.1155 -0.0000 0.0000 0.0000 0.4000 0.0000 34.2691 -0.5507 0.0000 1.9463
0.6900 -0.2584 0.0000 -0.0000 -0.2242 -0.0000 0.0000 23.8138 0.0000 -1.1727 34.2792 -0.0000 -3.9421 34.5052 -0.1145 -0.0000 0.0000 0.0000 0.4000 0.0000 34.2792 -0.5666 0.0000 1.8896
0.7000 -0.2605 0.0000 -0.0000 -0.2089 -0.0000 0.0000 24.1552 0.0000 -1.2227 34.2901 -0.0000 -3.9031 34.5116 -0.1133 -0.0000 0.0000 0.0000 0.4000 0.0000 34.2901 -0.5842 0.0000 1.8251
0.7100 -0.2625 0.0000 -0.0000 -0.1940 -0.0000 0.0000 24.4966 0.0000 -1.2739 34.3017 -0.0000 -3.8596 34.5182 -0.1120 -0.0000 0.0000 0.0000 0.4000 0.0000 34.3017 -0.6035 0.0000 1.7534
0.7200 -0.2644 0.0000 -0.0000 -0.1795 -0.0000 0.0000 24.8378 0.0000 -1.3262 34.3139 -0.0000 -3.8118 34.5250 -0.1106 -0.0000 0.0000 0.0000 0.4000 0.0000 34.3139 -0.6242 0.0000 1.6747
0.7300 -0.2661 0.0000 -0.0000 -0.1655 -0.0000 0.0000 25.1789 0.0000 -1.3797 34.3268 -0.0000 -3.7601 34.5321 -0.1091 -0.0000 0.0000 0.0000 0.4000 0.0000 34.3268 -0.6463 0.0000 1.5893
0.7400 -0.2677 0.0000 -0.0000 -0.1521 -0.0000 0.0000 25.5199 0.0000 -1.4342 34.3401 -0.0000 -3.7047 34.5394 -0.1075 -0.0000 0.0000 0.0000 0.4000 0.0000 34.3401 -0.6696 0.0000 1.4977
0.7500 -0.2692 0.0000 -0.0000 -0.1391 -0.0000 0.0000 25.8608 0.0000 -1.4899 34.3539 -0.0000 -3.6457 34.5468 -0.1057 -0.0000 0.0000 0.0000 0.4000 0.0000 34.3539 -0.6940 0.0000 1.4002
0.7600 -0.2705 0.0000 -0.0000 -0.1268 -0.0000 0.0000 26.2017 0.0000 -1.5467 34.3682 -0.0000 -3.5834 34.5545 -0.1039 -0.0000 0.0000 0.0000 0.4000 0.0000 34.3682 -0.7193 0.0000 1.2972
0.7700 -0.2717 0.0000 -0.0000 -0.1150 -0.0000 0.0000 26.5424 0.0000 -1.6045 34.3828 -0.0000 -3.5181 34.5623 -0.1020 -0.0000 0.0000 0.0000 0.4000 0.0000 34.3828 -0.7453 0.0000 1.1890
0.7800 -0.2728 0.0000 -0.0000 -0.1038 -0.0000 0.0000 26.8830 0.0000 -1.6635 34.3978 -0.0000 -3.4500 34.5704 -0.1000 -0.0000 0.0000 0.0000 0.4000 0.0000 34.3978 -0.7720 0.0000 1.0761
0.7900 -0.2738 0.0000 -0.0000 -0.0932 -0.0000 0.0000 27.2235 0.0000 -1.7234 34.4130 -0.0000 -3.3793 34.5785 -0.0979 -0.0000 0.0000 0.0000 0.4000 0.0000 34.4130 -0.7991 0.0000 0.9589
0.8000 -0.2747 0.0000 -0.0000 -0.0832 -0.0000 0.0000 27.5639 0.0000 -1.7845 34.4285 -0.0000 -3.3063 34.5869 -0.0957 -0.0000 0.0000 0.0000 0.4000 0.0000 34.4285 -0.8266 0.0000 0.8377
0.8100 -0.2755 0.0000 -0.0000 -0.0739 -0.0000 0.0000 27.9042 0.0000 -1.8466 34.4441 -0.0000 -3.2313 34.5954 -0.0935 -0.0000 0.0000 0.0000 0.4000 0.0000 34.4441 -0.8542 0.0000 0.7129
0.8200 -0.2762 0.0000 -0.0000 -0.0652 -0.0000 0.0000 28.2444 0.0000 -1.9097 34.4599 -0.0000 -3.1544 34.6040 -0.0913 -0.0000 0.0000 0.0000 0.4000 0.0000 34.4599 -0.8820 0.0000 0.5850
0.8300 -0.2768 0.0000 -0.0000 -0.0572 -0.0000 0.0000 28.5844 0.0000 -1.9738 34.4758 -0.0000 -3.0760 34.6128 -0.0890 -0.0000 0.0000 0.0000 0.4000 0.0000 34.4758 -0.9097 0.0000 0.4544
0.8400 -0.2773 0.0000 -0.0000 -0.0498 -0.0000 0.0000 28.9244 0.0000 -2.0389 34.4918 -0.0000 -2.9963 34.6217 -0.0867 -0.0000 0.0000 0.0000 0.4000 0.0000 34.4918 -0.9373 0.0000 0.3215
0.8500 -0.2778 0.0000 -0.0000 -0.0431 -0.0000 0.0000 29.2643 0.0000 -2.1050 34.5077 -0.0000 -2.9155 34.6307 -0.0843 -0.0000 0.0000 0.0000 0.4000 0.0000 34.5077 -0.9646 0.0000 0.1866
0.8600 -0.2782 0.0000 -0.0000 -0.0371 -0.0000 0.0000 29.6041 0.0000 -2.1721 34.5237 -0.0000 -2.8339 34.6398 -0.0819 -0.0000 0.0000 0.0000 0.4000 0.0000 34.5237 -0.9915 0.0000 0.0502
0.8700 -0.2785 0.0000 -0.0000 -0.0318 -0.0000 0.0000 29.9438 0.0000 -2.2401 34.5396 -0.0000 -2.7517 34.6490 -0.0795 -0.0000 0.0000 0.0000 0.4000 0.0000 34.5396 -1.0180 0.0000 -0.0873
0.8800 -0.2788 0.0000 -0.0000 -0.0271 -0.0000 0.0000 30.2834 0.0000 -2.3091 34.5555 -0.0000 -2.6692 34.6584 -0.0771 -0.0000 0.0000 0.0000 0.4000 0.0000 34.5555 -1.0440 0.0000 -0.2256
0.8900 -0.2791 0.0000 -0.0000 -0.0231 -0.0000 0.0000 30.6229 0.0000 -2.3790 34.5712 -0.0000 -2.5866 34.6678 -0.0747 -0.0000 0.0000 0.0000 0.4000 0.0000 34.5712 -1.0694 0.0000 -0.3642
0.9000 -0.2793 0.0000 -0.0000 -0.0198 -0.0000 0.0000 30.9624 0.0000 -2.4498 34.5869 -0.0000 -2.5041 34.6774 -0.0723 -0.0000 0.0000 0.0000 0.4000 0.0000 34.5869 -1.0941 0.0000 -0.5028
0.9100 -0.2795 0.0000 -0.0000 -0.0171 -0.0000 0.0000 31.3017 0.0000 -2.5215 34.6024 -0.0000 -2.4220 34.6870 -0.0699 -0.0000 0.0000 0.0000 0.4000 0.0000 34.6024 -1.1182 0.0000 -0.6409
0.9200 -0.2796 0.0000 -0.0000 -0.0151 -0.0000 0.0000 31.6409 0.0000 -2.5941 34.6177 -0.0000 -2.3404 34.6967 -0.0675 -0.0000 0.0000 0.0000 0.4000 0.0000 34.6177 -1.1414 0.0000 -0.7783
0.9300 -0.2798 0.0000 -0.0000 -0.0137 -0.0000 0.0000 31.9801 0.0000 -2.6676 34.6329 -0.0000 -2.2597 34.7066 -0.0652 -0.0000 0.0000 0.0000 0.4000 0.0000 34.6329 -1.1639 0.0000 -0.9145
0.9400 -0.2799 0.0000 -0.0000 -0.0129 -0.0000 0.0000 32.3191 0.0000 -2.7419 34.6479 -0.0000 -2.1799 34.7164 -0.0628 -0.0000 0.0000 0.0000 0.4000 0.0000 34.6479 -1.1856 0.0000 -1.0492
0.9500 -0.2800 0.0000 -0.0000 -0.0128 -0.0000 0.0000 32.6581 0.0000 -2.8171 34.6628 -0.0000 -2.1013 34.7264 -0.0605 -0.0000 0.0000 0.0000 0.4000 0.0000 34.6628 -1.2065 0.0000 -1.1821
0.9600 -0.2801 0.0000 -0.0000 -0.0133 -0.0000 0.0000 32.9970 0.0000 -2.8931 34.6774 -0.0000 -2.0241 34.7365 -0.0583 -0.0000 0.0000 0.0000 0.4000 0.0000 34.6774 -1.2265 0.0000 -1.3128
0.9700 -0.2803 0.0000 -0.0000 -0.0143 -0.0000 0.0000 33.3358 0.0000 -2.9700 34.6919 -0.0000 -1.9485 34.7466 -0.0561 -0.0000 0.0000 0.0000 0.4000 0.0000 34.6919 -1.2456 0.0000 -1.4410
0.9800 -0.2804 0.0000 -0.0000 -0.0160 -0.0000 0.0000 33.6745 0.0000 -3.0476 34.7062 -0.0000 -1.8746 34.7568 -0.0540 -0.0000 0.0000 0.0000 0.4000 0.0000 34.7062 -1.2639 0.0000 -1.5665
0.9900 -0.2806 0.0000 -0.0000 -0.0182 -0.0000 0.0000 34.0132 0.0000 -3.1260 34.7203 -0.0000 -1.8026 34.7670 -0.0519 -0.0000 0.0000 0.0000 0.4000 0.0000 34.7203 -1.2813 0.0000 -1.6889
1.0000 -0.2808 0.0000 -0.0000 -0.0209 -0.0000 0.0000 34.3518 0.0000 -3.2053 34.7342 -0.0000 -1.7327 34.7774 -0.0498 -0.0000 0.0000 -0.0524 0.4000 0.0000 34.7342 -1.3138 0.0000 -2.1257
1.0100 -0.2809 0.0000 -0.0000 -0.0057 -0.0000 0.0000 34.6903 0.0000 -3.2852 34.7479 -0.0000 -1.6650 34.7878 -0.0479 -0.0000 0.0000 -0.0524 0.4000 0.0000 34.7479 -1.3289 0.0000 -2.2414
1.0200 -0.2809 0.0000 -0.0000 0.0088 -0.0000 0.0000 35.0287 0.0000 -3.3660 34.7617 -0.0000 -1.5933 34.7982 -0.0458 -0.0000 0.0000 -0.0524 0.4000 0.0000 34.7617 -1.3443 0.0000 -2.3640
1.0300 -0.2808 0.0000 -0.0000 0.0227 -0.0000 0.0000 35.3671 0.0000 -3.4474 34.7756 -0.0000 -1.5179 34.8087 -0.0436 -0.0000 0.0000 -0.0524 0.4000 0.0000 34.7756 -1.3597 0.0000 -2.4929
1.0400 -0.2805 0.0000 -0.0000 0.0359 -0.0000 0.0000 35.7054 0.0000 -3.5295 34.7895 -0.0000 -1.4391 34.8193 -0.0413 -0.0000 0.0000 -0.0524 0.4000 0.0000 34.7895 -1.3751 0.0000 -2.6276
1.0500 -0.2800 0.0000 -0.0000 0.0484 -0.0000 0.0000 36.0437 0.0000 -3.6123 34.8034 -0.0000 -1.3572 34.8299 -0.0390 -0.0000 0.0000 -0.0524 0.4000 0.0000 34.8034 -1.3903 0.0000 -2.7677
1.0600 -0.2795 0.0000 -0.0000 0.0602 -0.0000 0.0000 36.3819 0.0000 -3.6958 34.8172 -0.0000 -1.2725 34.8405 -0.0365 -0.0000 0.0000 -0.0524 0.4000 0.0000 34.8172 -1.4052 0.0000 -2.9127
1.0700 -0.2788 0.0000 -0.0000 0.0712 -0.0000 0.0000 36.7200 0.0000 -3.7799 34.8309 -0.0000 -1.1852 34.8511 -0.0340 -0.0000 0.0000 -0.0524 0.4000 0.0000 34.8309 -1.4197 0.0000 -3.0621
